; C:\DIFFDAT1\Praktikum\Schlueckg_Sander\test.raw(Diffrac Plus V1.01 file) converted by XCH V1.0
_FILEVERSION=2
_SAMPLE='0916-XW-120-M5-ag.raw'
_SITE='Deutschland'
_USER='Administrator'
_GONIOMETER_CODE=4885
; D8 Theta/Theta; Special
_SAMPLE_CHANGER_CODE=0
_ATTACHMENTS_CODE=0
_GONIOMETER_RADIUS=350.000000
_FIXED_DIVSLIT=0.600000
_FIXED_SAMPLESLIT=0.000000
_FIXED_DETSLIT=11.660000
_MONOCHROMATOR=0
; None
_THIN_FILM='N'
_BETA_FILTER='Y'
_FIXED_ANTISLIT=8.340000
_ANALYZER_CODE=0
; None
_DATEMEASURED='13-Oct-2022 12:42:23'
_WL_UNIT='A'
_WL1=1.540600
_WL2=1.544390
_WL3=1.392220
_WLRATIO=0.500000
_ANODE='Cu'
; (Data for Range number 1)
_DRIVE='THETA'
_STEPTIME=2.000260
_STEPSIZE=0.005000
_STEPMODE='C'
_START=0.300000
_THETA=0.300000
_2THETA=0.600000
_KHI=0.000000
_PHI=92.459999
_X=0.000000
_Y=0.000000
_Z=0.188000
_DIVERGENCE=0.000000
_ANTISCATTER=0.000000
_DETECTOR=5
_DETECTORSLIT='unkn'
_AUX1=0.000000
_AUX2=0.000000
_AUX3=0.000000
_TIMESTARTED=3.000000
_TEMP_RATE=-1.000000
_TEMP_DELAY=-1.000000
_KV=40
_MA=35
_RANGE_WL=1.540600
_3DPLANE=0
_GONIOMETER=0.597600
_PSDCHANNEL0=0
_2THETACOUNTS
   0.3000     15147
   0.3050     11940
   0.3100      9059
   0.3150      7882
   0.3200      7924
   0.3250      8587
   0.3300      9202
   0.3350      8972
   0.3400      7778
   0.3450      6648
   0.3500      5303
   0.3550      4112
   0.3600      3766
   0.3650      3932
   0.3700      4372
   0.3750      4705
   0.3800      4794
   0.3850      4432
   0.3900      3837
   0.3950      3176
   0.4000      2588
   0.4050      2358
   0.4100      2339
   0.4150      2448
   0.4200      2743
   0.4250      2907
   0.4300      2773
   0.4350      2663
   0.4400      2201
   0.4450      1893
   0.4500      1620
   0.4550      1428
   0.4600      1506
   0.4650      1617
   0.4700      1801
   0.4750      1865
   0.4800      1854
   0.4850      1638
   0.4900      1484
   0.4950      1128
   0.5000      1023
   0.5050       997
   0.5100      1012
   0.5150      1131
   0.5200      1214
   0.5250      1253
   0.5300      1217
   0.5350      1128
   0.5400      1030
   0.5450       857
   0.5500       710
   0.5550       720
   0.5600       735
   0.5650       758
   0.5700       834
   0.5750       882
   0.5800       908
   0.5850       808
   0.5900       703
   0.5950       600
   0.6000       517
   0.6050       544
   0.6100       536
   0.6150       543
   0.6200       587
   0.6250       613
   0.6300       641
   0.6350       637
   0.6400       572
   0.6450       494
   0.6500       438
   0.6550       367
   0.6600       392
   0.6650       387
   0.6700       385
   0.6750       492
   0.6800       485
   0.6850       471
   0.6900       433
   0.6950       364
   0.7000       305
   0.7050       297
   0.7100       287
   0.7150       306
   0.7200       327
   0.7250       303
   0.7300       360
   0.7350       296
   0.7400       306
   0.7450       273
   0.7500       231
   0.7550       227
   0.7600       218
   0.7650       208
